Wavelength,Flux,FluxErr
9.711647642010166237e+03,5.207714892930835696e-17,2.258695024687775180e-18
9.758021546384530666e+03,1.140623818530842496e-16,2.290576922135736673e-18
9.804395450758891457e+03,1.854706965493616519e-16,3.140604696454679448e-18
9.850769355133255885e+03,2.624949037728283095e-16,5.137803915713992583e-18
9.897143259507616676e+03,3.392438810203873485e-16,4.205828922694375440e-18
9.943517163881981105e+03,3.415004575894098835e-16,4.034253827675251459e-18
9.989891068256341896e+03,3.790615414562352680e-16,5.201138994042475675e-18
1.003626497263070451e+04,4.953888075921498668e-16,4.794538630004705381e-18
1.008263887700506712e+04,6.554449421978338851e-16,4.819799916169487596e-18
1.012901278137942973e+04,8.049124704049914729e-16,4.483967966253031607e-18
1.017538668575379234e+04,9.253863847302599543e-16,3.398760174085815560e-18
1.022176059012815494e+04,1.111388079409344786e-15,4.580782658359059268e-18
1.026813449450251755e+04,1.468452091494392901e-15,4.709637434127633960e-18
1.031450839887688016e+04,2.056093007212809763e-15,6.025655298216306466e-18
1.036088230325124096e+04,2.740770875085780738e-15,5.402245123144864313e-18
1.040725620762560538e+04,3.412686582163704718e-15,5.422046218475917480e-18
1.045363011199996618e+04,4.241975744549639636e-15,6.482048689649108131e-18
1.050000401637433060e+04,5.629316563472610237e-15,9.481805202992421935e-18
1.054637792074869139e+04,8.072257746555918047e-15,1.225788981428206890e-17
1.059275182512305400e+04,1.158428387549854497e-14,1.593411137111438804e-17
1.063912572949741661e+04,1.528299082547153620e-14,1.309667040628337873e-17
1.068549963387177922e+04,1.846993488971210033e-14,1.723771243340122198e-17
1.073187353824614365e+04,2.316282388153447848e-14,2.725906909179242939e-17
1.077824744262050444e+04,3.241584404720823807e-14,4.971228522946071054e-17
1.082462134699486705e+04,4.803631189481142303e-14,7.163290353526559018e-17
1.087099525136922966e+04,6.888344308821528346e-14,7.928457028349285134e-17
1.091736915574359227e+04,8.547178670578853296e-14,6.545283076984846188e-17
1.096374306011795488e+04,9.747917288567509274e-14,6.497775839382474760e-17
1.101011696449231749e+04,1.112747371061241965e-13,8.342130529973881342e-17
1.105649086886668010e+04,1.295798466340886212e-13,9.252461781096122029e-17
1.110286477324104271e+04,1.478603017356750731e-13,9.164508297480824768e-17
1.114923867761540532e+04,1.637189783739684386e-13,6.998909026049940630e-17
1.119561258198976793e+04,1.700963928273569595e-13,7.402317995838944812e-17
1.124198648636412872e+04,1.757238888776261740e-13,6.774044226241677569e-17
1.128836039073849315e+04,1.789139111207671587e-13,7.322483610997853439e-17
1.133473429511285394e+04,1.828364567942829301e-13,7.220544536306217584e-17
1.138110819948721837e+04,1.846203303306205200e-13,6.744209052256449908e-17
1.142748210386157916e+04,1.789765112762666258e-13,6.185301462621493335e-17
1.147385600823594177e+04,1.796578411675382968e-13,8.776543924171416207e-17
1.152022991261030438e+04,1.904273747354252932e-13,8.849957150755832691e-17
1.156660381698466699e+04,1.950265965746940400e-13,6.817555207993209065e-17
1.161297772135902960e+04,1.967082147903098424e-13,6.889114999837042168e-17
1.165935162573339221e+04,1.974888258649116180e-13,7.918842745735205750e-17
1.170572553010775300e+04,2.000933621927255063e-13,8.607022362120527632e-17
1.175209943448211743e+04,2.032306260101357991e-13,7.749942899932172641e-17
1.179847333885648004e+04,2.077726062580055848e-13,8.233681490472004067e-17
1.184484724323084265e+04,2.087256648541703672e-13,8.991042323761186721e-17
1.189122114760520526e+04,2.152403680479562646e-13,8.350453650635199694e-17
1.193759505197956787e+04,2.170818737577502554e-13,8.336242947955233987e-17
1.198396895635393048e+04,2.174956698636498397e-13,9.059539049716104698e-17
1.203034286072829309e+04,2.173506283252517091e-13,8.869708735873511397e-17
1.207671676510265570e+04,2.219613940815964240e-13,9.201894533424309648e-17
1.212309066947701649e+04,2.272184298727603787e-13,8.648291409748455876e-17
1.216946457385138092e+04,2.287747612182531631e-13,9.399636926654870871e-17
1.221583847822574171e+04,2.337589353607175685e-13,9.655685744164472595e-17
1.226221238260010614e+04,2.343479177529782820e-13,9.277538129935206929e-17
1.230858628697446693e+04,2.374583469627225795e-13,8.886965339906662594e-17
1.235496019134882954e+04,2.380964224495285026e-13,9.144356894325812619e-17
1.240133409572319215e+04,2.382269041462956435e-13,1.013711349896609067e-16
1.244770800009755476e+04,2.359756087814883786e-13,8.622707099148309060e-17
1.249408190447191737e+04,2.338961592883717608e-13,9.285874560140685725e-17
1.254045580884627998e+04,2.392212407846594633e-13,8.949088767814253057e-17
1.258682971322064077e+04,2.398693127842983755e-13,1.019878596819017598e-16
1.263320361759500520e+04,2.430085896343432102e-13,9.562594033423177845e-17
1.267957752196936781e+04,2.449593713347018597e-13,9.360352812446770451e-17
1.272595142634373042e+04,2.442707777258005089e-13,9.482347513268615384e-17
1.277232533071809121e+04,2.473637194340814404e-13,1.049585128182984039e-16
1.281869923509245564e+04,2.507130569431024772e-13,1.019935302144791511e-16
1.286507313946681643e+04,2.515635587540098317e-13,1.010174349017116226e-16
1.291144704384118086e+04,2.548600610853674923e-13,1.036691613669853058e-16
1.295782094821554165e+04,2.558715108463230406e-13,1.066467668154571686e-16
1.300419485258990426e+04,2.617428665483266179e-13,9.875660483174660258e-17
1.305056875696426687e+04,2.624427409857346135e-13,9.505030003939493119e-17
1.309694266133862948e+04,2.630607944516998740e-13,9.106483199138513583e-17
1.314331656571299391e+04,2.623140979241549765e-13,9.401654225317508987e-17
1.318969047008735470e+04,2.619906217870444910e-13,1.134591453437124204e-16
1.323606437446171731e+04,2.664252009235054138e-13,1.037614811888569945e-16
1.328243827883607992e+04,2.642573246759393203e-13,1.004235940912723768e-16
1.332881218321044435e+04,2.599031841233335336e-13,9.080542140272893307e-17
1.337518608758480514e+04,2.567107574127013118e-13,1.057725268972237693e-16
1.342155999195916775e+04,2.523684204545437445e-13,8.891156013819632829e-17
1.346793389633352854e+04,2.522584195846148110e-13,8.193153484421218805e-17
1.351430780070789297e+04,2.509598766610408211e-13,9.631960823146140315e-17
1.356068170508225558e+04,2.503498838536063327e-13,1.063385488283247133e-16
1.360705560945661819e+04,2.509544963505593903e-13,9.420870078881439332e-17
1.365342951383097898e+04,2.512216459498683644e-13,1.068076175960448152e-16
1.369980341820534159e+04,2.531708644691979234e-13,1.031076050922456969e-16
1.374617732257970420e+04,2.489963737542387111e-13,9.520691067413056485e-17
1.379255122695406862e+04,2.474774112191734178e-13,8.726038460195062742e-17
1.383892513132842942e+04,2.460811622324879140e-13,9.085091640974136996e-17
1.388529903570279203e+04,2.453083819870184977e-13,9.221577090935579206e-17
1.393167294007715464e+04,2.412202414603299306e-13,7.986865123744476142e-17
1.397804684445151725e+04,2.371098556651504946e-13,7.677520203186423991e-17
1.402442074882587985e+04,2.408574333689136897e-13,8.503427291885815236e-17
1.407079465320024246e+04,2.405273028392391323e-13,8.525324200601628751e-17
1.411716855757460326e+04,2.396147368571622054e-13,8.535199629530203302e-17
1.416354246194896768e+04,2.378159035163444270e-13,8.975986109316131600e-17
1.420991636632333029e+04,2.395136929377780259e-13,9.391182288413967460e-17
1.425629027069769290e+04,2.388680488576098115e-13,9.898621301769089229e-17
1.430266417507205551e+04,2.393483283404032833e-13,8.582353651382253566e-17
1.434903807944641630e+04,2.419689497413104995e-13,9.235586720177532857e-17
1.439541198382078073e+04,2.407473037262977188e-13,9.102471110775756913e-17
1.444178588819514334e+04,2.418059755402393679e-13,1.010090630870720455e-16
1.448815979256950595e+04,2.427950478488200389e-13,9.368834978407306812e-17
1.453453369694386674e+04,2.423030142339349597e-13,9.519947666171488257e-17
1.458090760131822935e+04,2.425283741114936674e-13,9.817844206746472751e-17
1.462728150569259196e+04,2.404149337457871779e-13,9.127124433907009730e-17
1.467365541006695639e+04,2.371153766875085386e-13,8.948770746942261167e-17
1.472002931444131718e+04,2.383344907415418648e-13,8.786743561727847337e-17
1.476640321881567979e+04,2.315127047706684933e-13,9.637640725608709845e-17
1.481277712319004240e+04,2.316035398302058680e-13,9.006737163267874951e-17
1.485915102756440683e+04,2.337611500803752711e-13,9.223560160437081310e-17
1.490552493193876762e+04,2.353929678044662369e-13,9.356188414418578673e-17
1.495189883631313023e+04,2.379913260280983467e-13,9.207172217276234848e-17
1.499827274068749102e+04,2.380204423001633044e-13,8.106352468565555566e-17
1.504464664506185545e+04,2.361624246912502539e-13,1.030228986124975544e-16
1.509102054943621806e+04,2.375818510560091340e-13,9.892287816886528865e-17
1.513739445381058067e+04,2.389442294147992495e-13,8.434879862612649025e-17
1.518376835818494146e+04,2.374766710602523010e-13,9.016437414520050032e-17
1.523014226255930407e+04,2.397211073606750024e-13,9.424211318950306637e-17
1.527651616693366668e+04,2.389567902949832981e-13,8.635484246166773625e-17
1.532289007130803111e+04,2.403863845852248745e-13,9.033505675264287361e-17
1.536926397568239190e+04,2.395180217467816457e-13,9.190978420230106729e-17
1.541563788005675451e+04,2.381626551034422322e-13,9.015689616129403228e-17
1.546201178443111712e+04,2.349581058514414777e-13,9.859696792021485792e-17
1.550838568880547973e+04,2.369047190690559195e-13,9.110394145490777543e-17
1.555475959317984416e+04,2.362003102980244813e-13,9.426077309657844957e-17
1.560113349755420495e+04,2.365790154202989758e-13,8.826592189684353104e-17
1.564750740192856756e+04,2.362367725828469507e-13,9.244958533834047428e-17
1.569388130630293017e+04,2.368542614957073484e-13,9.706425721846882151e-17
1.574025521067729460e+04,2.353399705949449883e-13,8.953783672664255729e-17
1.578662911505165539e+04,2.390902175603672295e-13,9.106317455187982442e-17
1.583300301942601800e+04,2.391526194400405828e-13,9.949500096853427108e-17
1.587937692380037879e+04,2.376926697604208038e-13,9.407446325012386915e-17
1.592575082817474322e+04,2.378292557942344202e-13,8.838883869010412559e-17
1.597212473254910583e+04,2.380328923164446035e-13,9.379433357682521145e-17
1.601849863692346844e+04,2.367513789411356650e-13,8.620507068600189856e-17
1.606487254129782923e+04,2.344041718028433104e-13,9.167458523008717754e-17
1.611124644567219184e+04,2.317330501886249039e-13,8.029147200411810323e-17
1.615762035004655445e+04,2.286468976151898949e-13,8.790948106018939426e-17
1.620399425442091888e+04,2.258989080875849129e-13,9.360978943966042134e-17
1.625036815879527967e+04,2.268621874827860001e-13,8.907166609846314223e-17
1.629674206316964228e+04,2.230910162349144274e-13,8.369749690214411586e-17
1.634311596754400489e+04,2.231945298609326687e-13,9.201344548484224342e-17
1.638948987191836568e+04,2.231911954158569744e-13,8.645510568274133698e-17
1.643586377629272829e+04,2.239036656982184147e-13,8.283012326205116865e-17
1.648223768066709090e+04,2.218553877233643006e-13,8.430129132395251587e-17
1.652861158504145351e+04,2.211513917071709178e-13,8.847200104732148839e-17
1.657498548941581248e+04,2.157945033571779524e-13,9.267740455546945531e-17
1.662135939379017873e+04,2.032744620236914677e-13,9.495379048640309491e-17
1.666773329816454134e+04,1.827211579090003977e-13,1.107948446858329147e-16
1.671410720253890395e+04,1.554773247147232394e-13,1.160913584793621424e-16
1.676048110691326656e+04,1.267349147251023825e-13,1.136118944146266924e-16
1.680685501128762917e+04,1.002990209838599110e-13,1.016430662635366693e-16
1.685322891566199178e+04,7.763185159623497593e-14,8.800530916990681992e-17
1.689960282003635439e+04,5.952984985494439714e-14,6.920729063596275236e-17
1.694597672441071700e+04,4.630441828508727115e-14,5.828670117049368864e-17
1.699235062878507597e+04,3.617916122716786762e-14,4.615429782925012227e-17
1.703872453315943858e+04,2.867320373131494425e-14,3.646981209962852569e-17
1.708509843753380483e+04,2.262557367770450853e-14,2.927032248520315378e-17
1.713147234190816744e+04,1.806620058908828494e-14,2.308973273777218787e-17
1.717784624628252641e+04,1.427309299925493707e-14,1.831003899012007477e-17
1.722422015065689266e+04,1.131103388333960123e-14,1.591017357537134245e-17
1.727059405503125527e+04,8.876096141287252095e-15,1.268846268050347818e-17
1.731696795940561788e+04,6.926050739807875755e-15,9.492790642218264573e-18
1.736334186377997685e+04,5.389880128284076767e-15,8.548041772249178109e-18
1.740971576815433946e+04,4.201573407257609799e-15,8.552676313931260286e-18
1.745608967252870207e+04,3.287478722558870480e-15,6.942671568713716913e-18
1.750246357690306468e+04,2.555337486161414947e-15,6.612040164610996947e-18
1.754883748127742729e+04,1.975714059342886331e-15,5.614317129274574324e-18
1.759521138565178990e+04,1.494522101337166657e-15,5.470003963627123330e-18
1.764158529002615614e+04,1.128971037757788002e-15,6.240324144229726211e-18
1.768795919440051875e+04,8.643515022830335299e-16,5.244401116496991588e-18
1.773433309877487773e+04,6.912615530521844225e-16,4.498442193342816924e-18
1.778070700314924034e+04,5.686095419668008949e-16,4.748322729872352344e-18
1.782708090752360295e+04,4.908955284659721751e-16,5.718654753370159761e-18
1.787345481189796556e+04,4.116430151456623959e-16,4.547803090122362426e-18
1.791982871627232817e+04,3.523670324050944977e-16,4.249860613578001461e-18
1.796620262064669078e+04,2.587481077728420980e-16,3.920923454012307131e-18
1.801257652502105338e+04,1.809433106061230843e-16,3.707800825230545722e-18
1.805895042939541599e+04,8.547239269377739475e-17,2.679300361705906173e-18
