Wavelength,Flux,FluxErr
1.023062212591701245e+04,3.266606601192689319e-15,2.914370143995018385e-17
1.027703269170436579e+04,5.566622155125715364e-15,3.288513977733606823e-17
1.032344325749171730e+04,8.893037597221732354e-15,3.695739674178522001e-17
1.036985382327906882e+04,1.314595532602717222e-14,4.134139333010318738e-17
1.041626438906642034e+04,1.671374689729263533e-14,4.834087111327556814e-17
1.046267495485377367e+04,2.247144712104973963e-14,5.261631796623571777e-17
1.050908552064112519e+04,3.315651557135585807e-14,8.178794152144392612e-17
1.055549608642847670e+04,4.980432378396441811e-14,1.197878402856443539e-16
1.060190665221582822e+04,7.156297983063795650e-14,9.956775202194918866e-17
1.064831721800318155e+04,8.944847697358808148e-14,9.029779931344609306e-17
1.069472778379053307e+04,1.095200357784868636e-13,1.512324658952084212e-16
1.074113834957788458e+04,1.446557403379474525e-13,2.498673988808575096e-16
1.078754891536523610e+04,2.124925151347939570e-13,4.422031606782765494e-16
1.083395948115258943e+04,3.202140487400631904e-13,6.190236810851164120e-16
1.088037004693994095e+04,4.281926288585518538e-13,5.187061991388987586e-16
1.092678061272729246e+04,5.117468954266487945e-13,3.557796178913319595e-16
1.097319117851464398e+04,5.723910704949016145e-13,4.297135488130952519e-16
1.101960174430199550e+04,6.602198030266166762e-13,5.627002455747243245e-16
1.106601231008934883e+04,7.713982256514589656e-13,5.717123840825725557e-16
1.111242287587670035e+04,8.653091878348155004e-13,4.377758417724925990e-16
1.115883344166405186e+04,9.313469946285122043e-13,2.821174470309299474e-16
1.120524400745140520e+04,9.737961913437903394e-13,2.093523969623132719e-16
1.125165457323875671e+04,9.811271858534362778e-13,1.912070742168260315e-16
1.129806513902610823e+04,1.011150845170397622e-12,1.488593793685357585e-16
1.134447570481345974e+04,1.027902635679677587e-12,1.834718062052782147e-16
1.139088627060081126e+04,1.023211422891435086e-12,2.206441405935700716e-16
1.143729683638816459e+04,9.872492402041263490e-13,2.532208432175073979e-16
1.148370740217551611e+04,1.033783095626646660e-12,5.126104758012075393e-16
1.153011796796286762e+04,1.088749899839645629e-12,1.968146954915541986e-16
1.157652853375022096e+04,1.091911931505734562e-12,2.174473597904690233e-16
1.162293909953757247e+04,1.100134002842103490e-12,1.955059113721963216e-16
1.166934966532492399e+04,1.114989592935156663e-12,2.400673744217986836e-16
1.171576023111227551e+04,1.134246224048533865e-12,2.082664302221504114e-16
1.176217079689962702e+04,1.151060671104663648e-12,2.834598734873302708e-16
1.180858136268698036e+04,1.163231118444495221e-12,2.189776808805660438e-16
1.185499192847433187e+04,1.184399558225810385e-12,2.466495284390478542e-16
1.190140249426168339e+04,1.206069390560802910e-12,2.551240298105444595e-16
1.194781306004903490e+04,1.226663933995276939e-12,1.789206351492575768e-16
1.199422362583638824e+04,1.228920199021075863e-12,2.344347575767084168e-16
1.204063419162373975e+04,1.227450218556753070e-12,2.227882916098223647e-16
1.208704475741109127e+04,1.251906740742560319e-12,2.496828337306800362e-16
1.213345532319844278e+04,1.276213053293251805e-12,1.658408031667678452e-16
1.217986588898579430e+04,1.293537006035393733e-12,2.304926296612463581e-16
1.222627645477314763e+04,1.311278356787676186e-12,1.945672763082186464e-16
1.227268702056049915e+04,1.332170253199370941e-12,2.491548496553160826e-16
1.231909758634785067e+04,1.333928415824307054e-12,2.199827780460878473e-16
1.236550815213520400e+04,1.335377108793648901e-12,2.285306518763336373e-16
1.241191871792255552e+04,1.341152300266938929e-12,2.364856732752650978e-16
1.245832928370990703e+04,1.325977456858821608e-12,2.307748897013278028e-16
1.250473984949725855e+04,1.329727336720815964e-12,2.590960829051977876e-16
1.255115041528461006e+04,1.327834984587864265e-12,1.777160667156615354e-16
1.259756098107196340e+04,1.357665016074487905e-12,2.659724842443813059e-16
1.264397154685931491e+04,1.368985620257584428e-12,1.931095994525392036e-16
1.269038211264666643e+04,1.371037855141018135e-12,2.382109101456085013e-16
1.273679267843401976e+04,1.383969555918528125e-12,2.513311698902987050e-16
1.278320324422137128e+04,1.399509649382069992e-12,2.385829712481456158e-16
1.282961381000872279e+04,1.410947392018385509e-12,2.680126206341839798e-16
1.287602437579607431e+04,1.416529905306604722e-12,2.695369178057003153e-16
1.292243494158342583e+04,1.431428128433268687e-12,2.425536189758369796e-16
1.296884550737077916e+04,1.458009604227735192e-12,2.695987789372038968e-16
1.301525607315813068e+04,1.462287916029493067e-12,2.571983968860211373e-16
1.306166663894548219e+04,1.489424445491376010e-12,2.200555688107751550e-16
1.310807720473283553e+04,1.479830889925602813e-12,2.233818283874865728e-16
1.315448777052018704e+04,1.466794897396057095e-12,1.930081720834488160e-16
1.320089833630753856e+04,1.476227493099242541e-12,3.394337825374713710e-16
1.324730890209489007e+04,1.505247779330415110e-12,2.646385138067397754e-16
1.329371946788224159e+04,1.503737853935674043e-12,2.168640187790014396e-16
1.334013003366959310e+04,1.464806442382637997e-12,3.249291801213185106e-16
1.338654059945694644e+04,1.411797296256866929e-12,2.651866320104373012e-16
1.343295116524429795e+04,1.412881680714458608e-12,1.879419090911121620e-16
1.347936173103165129e+04,1.407406501353057210e-12,2.367734020214275512e-16
1.352577229681900280e+04,1.410239243855883586e-12,1.926588903787837530e-16
1.357218286260635432e+04,1.397833986023781684e-12,1.966882063051443106e-16
1.361859342839370584e+04,1.405581528435963898e-12,2.558821194878185890e-16
1.366500399418105735e+04,1.410151664570690916e-12,2.683566291040781976e-16
1.371141455996840887e+04,1.414370255080674491e-12,1.845988876384208414e-16
1.375782512575576220e+04,1.414303599118531823e-12,2.248928642035378962e-16
1.380423569154311372e+04,1.374908753426328843e-12,2.455958691385070356e-16
1.385064625733046705e+04,1.380522556052357269e-12,1.919570006927952139e-16
1.389705682311781857e+04,1.369981493107200934e-12,2.479033970343093997e-16
1.394346738890517008e+04,1.353976469641304108e-12,2.503952445105395708e-16
1.398987795469252160e+04,1.344543199373910179e-12,1.955146690826530476e-16
1.403628852047987311e+04,1.333219704068099371e-12,1.592250099762474839e-16
1.408269908626722463e+04,1.359741953647407407e-12,2.060837046420026805e-16
1.412910965205457615e+04,1.349788464110247384e-12,2.033422557608199372e-16
1.417552021784192948e+04,1.341643405369988147e-12,2.400127244414188161e-16
1.422193078362928100e+04,1.337660235636739837e-12,2.487628570287472664e-16
1.426834134941663433e+04,1.352485652093255603e-12,2.237971571154525220e-16
1.431475191520398585e+04,1.341842916395866528e-12,2.501294697988706240e-16
1.436116248099133736e+04,1.350024827683205982e-12,2.066995053003102516e-16
1.440757304677868888e+04,1.365144964419050958e-12,2.535435136255323751e-16
1.445398361256604039e+04,1.364727675567214521e-12,2.399114792623597517e-16
1.450039417835339191e+04,1.360343409747778643e-12,1.979265523740200702e-16
1.454680474414074524e+04,1.361766016227598637e-12,2.403933119878913131e-16
1.459321530992809676e+04,1.359666175291665393e-12,2.113984093978882164e-16
1.463962587571545009e+04,1.348318170881798936e-12,1.946363213193698052e-16
1.468603644150280161e+04,1.335162329489811023e-12,2.354819425613313990e-16
1.473244700729015312e+04,1.319269056598058813e-12,2.526313408219842678e-16
1.477885757307750464e+04,1.328320336867058936e-12,2.528148404643690622e-16
1.482526813886485616e+04,1.278861024392573217e-12,2.238913229627113278e-16
1.487167870465220767e+04,1.313079047605214941e-12,2.440382902804574360e-16
1.491808927043956101e+04,1.323734373950812024e-12,1.882059480943787076e-16
1.496449983622691252e+04,1.336323092087518706e-12,2.259525168241159017e-16
1.501091040201426586e+04,1.342452272268859543e-12,1.829126726319539816e-16
1.505732096780161737e+04,1.333891666972285908e-12,2.433665985165980175e-16
1.510373153358896889e+04,1.335452543338042632e-12,2.654628633238538932e-16
1.515014209937632040e+04,1.338635281476321888e-12,2.143456712752162224e-16
1.519655266516367192e+04,1.338293615424313899e-12,2.314462082413105259e-16
1.524296323095102343e+04,1.345784279111529700e-12,1.829894083142815285e-16
1.528937379673837677e+04,1.343704285212690380e-12,2.353206979024564896e-16
1.533578436252572828e+04,1.337383306268857731e-12,2.446484568562662528e-16
1.538219492831308162e+04,1.342010924031323220e-12,2.810802285039118647e-16
1.542860549410043313e+04,1.334061129216766951e-12,2.091266657567025636e-16
1.547501605988778465e+04,1.333611332936639616e-12,2.287174667082659740e-16
1.552142662567513617e+04,1.321355874090163504e-12,2.801433208038571473e-16
1.556783719146248768e+04,1.325556778129958152e-12,2.309455964260324274e-16
1.561424775724983920e+04,1.325847002611530499e-12,1.861838131650802514e-16
1.566065832303719071e+04,1.333243928550404315e-12,2.084828381636978126e-16
1.570706888882454405e+04,1.331856819866102848e-12,2.012398939972608940e-16
1.575347945461189556e+04,1.327582867440871897e-12,2.123386011156354623e-16
1.579989002039924890e+04,1.322633331792079258e-12,2.247991731478957268e-16
1.584630058618660041e+04,1.341047592935167573e-12,2.028799852450762388e-16
1.589271115197395193e+04,1.341896352423902819e-12,2.256458761111967992e-16
1.593912171776130344e+04,1.330418943029625142e-12,2.069633856843247770e-16
1.598553228354865496e+04,1.337170341961678170e-12,2.543886555868883779e-16
1.603194284933600647e+04,1.328006802103979815e-12,2.260747198093094241e-16
1.607835341512335981e+04,1.308813404509446698e-12,2.383472855995278424e-16
1.612476398091071133e+04,1.301530352028555448e-12,2.520376410868250388e-16
1.617117454669806466e+04,1.276992811808451363e-12,2.174352325740660613e-16
1.621758511248541618e+04,1.263462935889142729e-12,2.270916113445362665e-16
1.626399567827276769e+04,1.255600048966917906e-12,1.965263369709078643e-16
1.631040624406011921e+04,1.264252374715202632e-12,1.839420091973963195e-16
1.635681680984747072e+04,1.242089485965871899e-12,2.247870428285896960e-16
1.640322737563482224e+04,1.235352550189334735e-12,2.151024340049765489e-16
1.644963794142217375e+04,1.249213962984234429e-12,1.820332788677999807e-16
1.649604850720952527e+04,1.251042509370043806e-12,2.038015176237511013e-16
1.654245907299688042e+04,1.218545841460268257e-12,2.354721324313361849e-16
1.658886963878423194e+04,1.191370697781250173e-12,3.196376475117442484e-16
1.663528020457158345e+04,1.106911203855128016e-12,5.324298309547148547e-16
1.668169077035893497e+04,9.751835395580818219e-13,7.817792257836900169e-16
1.672810133614628649e+04,8.123443735720652819e-13,8.760927627663722938e-16
1.677451190193363800e+04,6.537174653953361266e-13,7.971206752703195584e-16
1.682092246772099315e+04,5.188299204983896838e-13,6.700781405974197204e-16
1.686733303350834467e+04,3.972440411816804270e-13,5.441731900211753369e-16
1.691374359929569619e+04,3.037873400822855992e-13,4.333572788588483117e-16
1.696015416508304770e+04,2.377666230524760261e-13,3.379481074737318140e-16
1.700656473087039922e+04,1.866593145425315464e-13,2.713285512746182068e-16
1.705297529665775073e+04,1.460300261994446534e-13,2.047409654510018362e-16
1.709938586244510225e+04,1.162024835474758934e-13,1.939645453656613564e-16
1.714579642823245376e+04,9.178205325678784747e-14,1.517544981945226364e-16
1.719220699401980528e+04,7.310355350799400697e-14,1.300032078898207504e-16
1.723861755980715679e+04,5.639507070813005000e-14,1.017003995157061693e-16
1.728502812559450831e+04,4.333837253670728920e-14,6.848770362029642564e-17
1.733143869138185983e+04,3.290485944897152545e-14,6.891753211299319122e-17
1.737784925716921498e+04,2.451762621161880162e-14,5.142597475741679327e-17
1.742425982295656650e+04,1.825892128732595348e-14,4.579817221658421907e-17
1.747067038874391801e+04,1.345520554633841730e-14,4.968445969308155344e-17
1.751708095453126953e+04,9.489745204549180296e-15,3.692730470022652183e-17
1.756349152031862468e+04,6.380062685412959306e-15,3.783232678396311261e-17
1.760990208610597620e+04,4.156662067040887690e-15,2.862376154188488687e-17
