Wavelength,Flux,FluxErr
9.659464397499568804e+03,7.606438978508591097e-17,1.218084773478518745e-18
9.705712085463297626e+03,1.137344407191603263e-16,1.916875811063544136e-18
9.751959773427028267e+03,1.604912584476866259e-16,1.984242484344190456e-18
9.798207461390757089e+03,2.036113420228503069e-16,1.927130875459696446e-18
9.844455149354485911e+03,2.422926140937664639e-16,2.505418161969631195e-18
9.890702837318216552e+03,2.610547278127574729e-16,2.580261009157020183e-18
9.936950525281943555e+03,2.662747454726043688e-16,2.295170525646550656e-18
9.983198213245674197e+03,3.429907709815327241e-16,2.290777078287064905e-18
1.002944590120940302e+04,4.317013709925220557e-16,2.713701491775538514e-18
1.007569358917313366e+04,5.128915537714784678e-16,2.148114056665385146e-18
1.012194127713686248e+04,5.957514907556964978e-16,2.569333723130377947e-18
1.016818896510058948e+04,6.504840721148753722e-16,2.767110120996422631e-18
1.021443665306432013e+04,7.866243469756587076e-16,2.323865335741741716e-18
1.026068434102804895e+04,1.002330936648348220e-15,2.452141239874550161e-18
1.030693202899177959e+04,1.338401940544126336e-15,3.147718699605739505e-18
1.035317971695550841e+04,1.659804507583683202e-15,3.403574416780024631e-18
1.039942740491923905e+04,1.965998139981068854e-15,3.453491504633165049e-18
1.044567509288296606e+04,2.435935683956037931e-15,3.231805364558127351e-18
1.049192278084669488e+04,3.251321278607480555e-15,5.209365297271214594e-18
1.053817046881042552e+04,4.624320619703696801e-15,7.020317178208182567e-18
1.058441815677415434e+04,6.273832040936248575e-15,7.765831036980304142e-18
1.063066584473788498e+04,7.730694796446697657e-15,6.518355265186696209e-18
1.067691353270161198e+04,9.278631778865857376e-15,6.107642557558574787e-18
1.072316122066534263e+04,1.186936900506512206e-14,1.480713147096053054e-17
1.076940890862907145e+04,1.688024867877777910e-14,2.682096883919245220e-17
1.081565659659280027e+04,2.465909254313520308e-14,3.729297386548059484e-17
1.086190428455653091e+04,3.269496978903577895e-14,2.970672589186542351e-17
1.090815197252025973e+04,3.840788372458157136e-14,1.970493492480920558e-17
1.095439966048399037e+04,4.329232503567607239e-14,2.516091115997748709e-17
1.100064734844771738e+04,4.933280944962153012e-14,3.240610735110843665e-17
1.104689503641144802e+04,5.745437267229637481e-14,4.198824437982011984e-17
1.109314272437517684e+04,6.515240327187897516e-14,4.040700412903362272e-17
1.113939041233890566e+04,7.007039186042300647e-14,2.362298066119336532e-17
1.118563810030263448e+04,7.130725487782347904e-14,1.898025669319065623e-17
1.123188578826636331e+04,7.368019482656408732e-14,1.795656049598649495e-17
1.127813347623009395e+04,7.413517053684511363e-14,1.907503843320560745e-17
1.132438116419382277e+04,7.184383853971409766e-14,1.995858737834255856e-17
1.137062885215755341e+04,7.708029669738133364e-14,2.128078265908680090e-17
1.141687654012128223e+04,7.712660182315929786e-14,1.662752434792484290e-17
1.146312422808501105e+04,7.860855274727982068e-14,2.327449356177480980e-17
1.150937191604873988e+04,7.877737088625985724e-14,2.025176307573195338e-17
1.155561960401246870e+04,7.745041033111892757e-14,1.845628602963270640e-17
1.160186729197619934e+04,7.910893449650190299e-14,1.709501031380753234e-17
1.164811497993992816e+04,7.974932221981072381e-14,2.347969814173757334e-17
1.169436266790365698e+04,8.109408954812975159e-14,2.090530521255860313e-17
1.174061035586738581e+04,8.245573686269793942e-14,2.426846898314721440e-17
1.178685804383111463e+04,8.363499004747226426e-14,2.105220440971312651e-17
1.183310573179484527e+04,8.393428009129815541e-14,2.192735546061256509e-17
1.187935341975857409e+04,8.400047440444083094e-14,2.647957823049906481e-17
1.192560110772230473e+04,8.484607709789948634e-14,2.336029269949982780e-17
1.197184879568603355e+04,8.629661313823447536e-14,2.001156279310898817e-17
1.201809648364976238e+04,8.503184831335367660e-14,2.361453135273706652e-17
1.206434417161349120e+04,8.712315992547134783e-14,1.781187014683264855e-17
1.211059185957722002e+04,8.787265330514042665e-14,2.140792583237328334e-17
1.215683954754095066e+04,8.834760494083391039e-14,2.462023079873402191e-17
1.220308723550467766e+04,9.011795138484100421e-14,2.141578029348841846e-17
1.224933492346840831e+04,9.107672334355346019e-14,2.099212736377127040e-17
1.229558261143213713e+04,9.103936428695282152e-14,2.068079888657042447e-17
1.234183029939586777e+04,9.169038321480729052e-14,2.509013196063060388e-17
1.238807798735959659e+04,9.241232847546834560e-14,2.025168518077091332e-17
1.243432567532332541e+04,9.137252183212228987e-14,1.978740251881355864e-17
1.248057336328705605e+04,9.190565891770152633e-14,2.353613393340074265e-17
1.252682105125078306e+04,9.277158949491266730e-14,2.397528488567192227e-17
1.257306873921451370e+04,9.216550847039947535e-14,2.362541957651799439e-17
1.261931642717824252e+04,9.208943434017674233e-14,1.754580175525244987e-17
1.266556411514197316e+04,9.150292561918829530e-14,2.249966615905153644e-17
1.271181180310570198e+04,9.170170351756224238e-14,2.480016853501028709e-17
1.275805949106942899e+04,9.185802069803147564e-14,2.718695738219446775e-17
1.280430717903315963e+04,9.176937791843386009e-14,1.854753415476741262e-17
1.285055486699688845e+04,9.147188997590675009e-14,2.303043648173803207e-17
1.289680255496061909e+04,9.367710433275114968e-14,3.538127541473941750e-17
1.294305024292434791e+04,9.288853221239351118e-14,2.764398862374075745e-17
1.298929793088807855e+04,8.959323224668122133e-14,2.454517513183094552e-17
1.303554561885180556e+04,9.526042030136915274e-14,2.535322092749684401e-17
1.308179330681553438e+04,9.502984318942044422e-14,2.717242708258041499e-17
1.312804099477926502e+04,9.506387122906507958e-14,2.267552451855719822e-17
1.317428868274299384e+04,9.424087439242042692e-14,2.270500016932471980e-17
1.322053637070672266e+04,9.621640636736533802e-14,2.740912918996120935e-17
1.326678405867045149e+04,9.690891809623252939e-14,2.599587503077182491e-17
1.331303174663418031e+04,9.635091560106932951e-14,2.102965058289779815e-17
1.335927943459791095e+04,9.698307367377185728e-14,2.529760999009413942e-17
1.340552712256163977e+04,9.731592144437221857e-14,2.717862926069318785e-17
1.345177481052537041e+04,9.699435080186194947e-14,2.386033974150979776e-17
1.349802249848909923e+04,9.710423981718435464e-14,2.664214590149924365e-17
1.354427018645282988e+04,9.667812899589295069e-14,2.611654060945249146e-17
1.359051787441655688e+04,9.583043868661616721e-14,2.413221673625167904e-17
1.363676556238028570e+04,9.497992244666564521e-14,2.782055504209816628e-17
1.368301325034401634e+04,9.550079613662589238e-14,3.296187329477456304e-17
1.372926093830774334e+04,9.475484788789479828e-14,2.381288039508822199e-17
1.377550862627147399e+04,9.344146309662826555e-14,2.843569139682052875e-17
1.382175631423520281e+04,8.997607495125464877e-14,2.808581471799090928e-17
1.386800400219893345e+04,9.241626413096791446e-14,2.252345094810958903e-17
1.391425169016266227e+04,9.321632330063547662e-14,2.133620258867232151e-17
1.396049937812639109e+04,9.289160457906609651e-14,2.274623980293780239e-17
1.400674706609012173e+04,9.331145465602500764e-14,2.782587913888329053e-17
1.405299475405385056e+04,9.434306653002925127e-14,2.260099577988034270e-17
1.409924244201757938e+04,9.367090698765589269e-14,2.805240478288135637e-17
1.414549012998130820e+04,9.361834973899685297e-14,2.931195805329951475e-17
1.419173781794503884e+04,9.309968071167448474e-14,2.698573132040535832e-17
1.423798550590876584e+04,9.200067219043883989e-14,2.607540195871794867e-17
1.428423319387249467e+04,9.260735707830645946e-14,2.414127515510446708e-17
1.433048088183622531e+04,9.245145841009725786e-14,2.795325992219450876e-17
1.437672856979995413e+04,9.323449222420562546e-14,2.955889366888952692e-17
1.442297625776368477e+04,9.211700184790102872e-14,2.344449606895932755e-17
1.446922394572741359e+04,9.175392029191520257e-14,2.369875198519533428e-17
1.451547163369114423e+04,9.151919570908926856e-14,3.068855583709181839e-17
1.456171932165487306e+04,9.059976603739847370e-14,2.768697241456531879e-17
1.460796700961860188e+04,9.117490296734441372e-14,3.107882086588848960e-17
1.465421469758233070e+04,9.044225538695983434e-14,3.380057821898341794e-17
1.470046238554605952e+04,8.887225661956288749e-14,3.051778239923391507e-17
1.474671007350978834e+04,8.905192563146926788e-14,2.964586523859371451e-17
1.479295776147351717e+04,8.946840882156065922e-14,2.875540183473163364e-17
1.483920544943724781e+04,8.850796581794687585e-14,2.404063505078787700e-17
1.488545313740097663e+04,8.665654014401704516e-14,3.183098400590314906e-17
1.493170082536470545e+04,8.672314860364437622e-14,2.793982035204101732e-17
1.497794851332843609e+04,8.636683135036426423e-14,2.569823302424187299e-17
1.502419620129216491e+04,8.548713377348762397e-14,3.123017335516948142e-17
1.507044388925589556e+04,8.395281444577091779e-14,3.172477660204551443e-17
1.511669157721962438e+04,8.680176379039518098e-14,2.868232034075764445e-17
1.516293926518335320e+04,8.826016968572188133e-14,2.858323927745675398e-17
1.520918695314708202e+04,8.750907820083248764e-14,3.295105507537090079e-17
1.525543464111080903e+04,8.681704318632493070e-14,2.443139295779921989e-17
1.530168232907453967e+04,8.697002580868426920e-14,2.771093238066032390e-17
1.534793001703826849e+04,8.650732818320383571e-14,2.867933788760053244e-17
1.539417770500199913e+04,8.565637763286324497e-14,3.536424437683051770e-17
1.544042539296572795e+04,8.558778099508594558e-14,2.810281499178961121e-17
1.548667308092945859e+04,8.459304102635585301e-14,2.775116686173431212e-17
1.553292076889318741e+04,8.387607112734173793e-14,2.873447524296394086e-17
1.557916845685691624e+04,8.273178432732344258e-14,3.134835763748315336e-17
1.562541614482064688e+04,8.188291690569164002e-14,3.156469804631533404e-17
1.567166383278437388e+04,8.144885696688041967e-14,2.801351313942597987e-17
1.571791152074810452e+04,8.033297229040281432e-14,2.824995486801128651e-17
1.576415920871183334e+04,7.695494051284960381e-14,2.937463571670272656e-17
1.581040689667556217e+04,7.828980581997521121e-14,2.660603552191717716e-17
1.585665458463929099e+04,7.821235303720804572e-14,2.675298727871306376e-17
1.590290227260301981e+04,7.760729881699859302e-14,3.035060513770720654e-17
1.594914996056675045e+04,7.702454588515938224e-14,3.145284530528124849e-17
1.599539764853047927e+04,7.816231230865552877e-14,2.479210794931419380e-17
1.604164533649420991e+04,7.777227107636946736e-14,3.060233848710298680e-17
1.608789302445793874e+04,7.804561544746685238e-14,2.706332404173532764e-17
1.613414071242166938e+04,7.644126363395123558e-14,2.490205575411833831e-17
1.618038840038539638e+04,7.584374669686282567e-14,2.723974145415113507e-17
1.622663608834912520e+04,7.527755552601854845e-14,2.625811581280722879e-17
1.627288377631285584e+04,7.524030913473382435e-14,2.655817891124566980e-17
1.631913146427658285e+04,7.458951291984350901e-14,3.210699251359085782e-17
1.636537915224031167e+04,7.286487930093626446e-14,2.865248270007551033e-17
1.641162684020404413e+04,7.125106992822468506e-14,2.044372972181752566e-17
1.645787452816777295e+04,7.072026011773644675e-14,2.451459471781326672e-17
1.650412221613150177e+04,6.961564181781257370e-14,2.613711270266501353e-17
1.655036990409523059e+04,6.867078121695938353e-14,2.390499860094298836e-17
1.659661759205895942e+04,6.661004397463257899e-14,2.423360344445184250e-17
1.664286528002269188e+04,6.120476205617883176e-14,3.831786073659113837e-17
1.668911296798641706e+04,5.351515612906234884e-14,4.195944142202614939e-17
1.673536065595014588e+04,4.397579887140333917e-14,4.936712619550906443e-17
1.678160834391387471e+04,3.543449844380260430e-14,4.102483648920374421e-17
1.682785603187760717e+04,2.747960128113341566e-14,3.717332364312018916e-17
1.687410371984133599e+04,2.134698714190001401e-14,3.165337964948216950e-17
1.692035140780506481e+04,1.657342119398436604e-14,2.700712565696695207e-17
1.696659909576879363e+04,1.296241697901934755e-14,2.034718685905156664e-17
1.701284678373252245e+04,1.021066677536569117e-14,1.794940320324684241e-17
1.705909447169625491e+04,8.173993053831541954e-15,1.242326187150357271e-17
1.710534215965998374e+04,6.557637844820584031e-15,1.055087292992026644e-17
1.715158984762371256e+04,5.385026726939660324e-15,8.560466272936723936e-18
1.719783753558744138e+04,4.297967755185270603e-15,7.998789697186388852e-18
1.724408522355117020e+04,3.461743845415479844e-15,6.564529479567633817e-18
1.729033291151490266e+04,2.751362450674112957e-15,5.774208554590596895e-18
1.733658059947863148e+04,2.172889532239852782e-15,4.688170570225501705e-18
1.738282828744235667e+04,1.726462668877175586e-15,4.039885500673282502e-18
1.742907597540608549e+04,1.361823607043807705e-15,3.725779521536776928e-18
1.747532366336981431e+04,1.115821109844441020e-15,3.097784626996801267e-18
1.752157135133354677e+04,9.051449644139495587e-16,3.058145465295199289e-18
1.756781903929727559e+04,7.417951384932991705e-16,2.684472464406239840e-18
1.761406672726100442e+04,6.115393622961439354e-16,3.267020507742263832e-18
1.766031441522472960e+04,4.963731914317328794e-16,2.808749771555847938e-18
1.770656210318846206e+04,4.219075279486455968e-16,2.954831111666979478e-18
1.775280979115219088e+04,3.578380492260290601e-16,3.185287724544655863e-18
1.779905747911591970e+04,2.978550198640550398e-16,2.828667655862522794e-18
1.784530516707964853e+04,2.712048901402565662e-16,2.519292784546196418e-18
1.789155285504337735e+04,2.305237760699855970e-16,2.468233153120156736e-18
1.793780054300710981e+04,1.942985754495602258e-16,2.450659197331699588e-18
1.798404823097083863e+04,1.388758413534970814e-16,2.010829810807509624e-18
