Wavelength,Flux,FluxErr
7.403821735588257070e+03,1.312432033440143165e-16,5.859975887998445406e-19
7.428207036860041626e+03,1.685927652016345625e-16,4.842657992236288218e-19
7.452592338131826182e+03,2.013672804695850861e-16,6.302827029468833765e-19
7.476977639403610738e+03,2.305927395224883592e-16,6.222326291135122149e-19
7.501362940675395294e+03,2.693577155656604724e-16,7.156628769488333867e-19
7.525748241947180759e+03,3.290262822711908183e-16,7.495319229617340225e-19
7.550133543218965315e+03,4.091235981210071538e-16,8.999237712016784506e-19
7.574518844490749871e+03,5.302823607700930952e-16,1.030124763318482014e-18
7.598904145762534426e+03,7.551164876431040745e-16,1.179732061905960212e-18
7.623289447034318982e+03,1.141164042883965277e-15,1.593194819801143271e-18
7.647674748306105357e+03,1.580938233570185399e-15,1.750847843403391594e-18
7.672060049577889913e+03,2.067790154765498072e-15,2.293907014811270475e-18
7.696445350849674469e+03,2.879780935119407762e-15,3.874219119968909254e-18
7.720830652121459025e+03,4.163959072362618779e-15,5.129623082084623724e-18
7.745215953393244490e+03,5.727551092875606608e-15,4.807675181335464869e-18
7.769601254665029046e+03,6.696505495969125529e-15,3.751588211779992756e-18
7.793986555936813602e+03,7.557250538691932329e-15,3.961341370161430240e-18
7.818371857208598158e+03,8.932803668083017170e-15,6.382024489099034672e-18
7.842757158480382714e+03,1.116924766299090245e-14,8.480491981917451181e-18
7.867142459752169088e+03,1.408582948072536831e-14,9.393410060848551116e-18
7.891527761023953644e+03,1.679359877544450734e-14,7.902450917460428245e-18
7.915913062295738200e+03,1.869177493828621498e-14,6.624578307389937853e-18
7.940298363567522756e+03,2.021194280260515350e-14,5.735606472968579100e-18
7.964683664839307312e+03,2.179693455994192301e-14,7.913789553704832240e-18
7.989068966111092777e+03,2.407511582067354737e-14,7.688109762496354265e-18
8.013454267382877333e+03,2.595056331344500643e-14,6.769283252939908139e-18
8.037839568654661889e+03,2.731568223305894715e-14,5.926010662774100150e-18
8.062224869926446445e+03,2.841572580910308243e-14,5.173867260971177862e-18
8.086610171198231910e+03,2.901198980868318362e-14,4.031078435469655476e-18
8.110995472470016466e+03,2.955979853809504360e-14,4.814616335882880709e-18
8.135380773741801022e+03,3.062610624117500367e-14,5.197290033312986993e-18
8.159766075013585578e+03,3.177361453926274556e-14,5.834158249865202715e-18
8.184151376285370134e+03,3.304106541378826738e-14,4.791340712791943879e-18
8.208536677557154690e+03,3.341937503010931564e-14,4.398049548300097904e-18
8.232921978828939245e+03,3.476046522079903076e-14,7.683040240720919468e-18
8.257307280100725620e+03,3.726208762521168534e-14,7.943757191392346847e-18
8.281692581372510176e+03,3.944792453919041713e-14,6.065490693814030769e-18
8.306077882644294732e+03,4.077652904430001546e-14,5.963985988501846848e-18
8.330463183916079288e+03,4.186591725832343925e-14,5.367575724400941061e-18
8.354848485187863844e+03,4.239415182370881701e-14,5.281425946227018187e-18
8.379233786459648400e+03,4.375569134277039490e-14,5.991709110636904271e-18
8.403619087731434774e+03,4.470688972979094185e-14,5.597690248946588369e-18
8.428004389003219330e+03,4.649748166997125832e-14,5.749672729238855890e-18
8.452389690275003886e+03,4.746415513829646456e-14,6.169877160732804008e-18
8.476774991546788442e+03,4.888311435960649414e-14,6.567353026546094710e-18
8.501160292818574817e+03,4.950731443348744777e-14,5.550017661324412129e-18
8.525545594090359373e+03,4.935057979321458666e-14,6.052008265044982675e-18
8.549930895362143929e+03,4.918935929559892132e-14,6.339130289135146745e-18
8.574316196633928485e+03,4.914056879800102441e-14,1.114946074086428445e-17
8.598701497905713040e+03,5.093939053744219218e-14,5.820984044399181944e-18
8.623086799177497596e+03,5.286109031224946132e-14,6.007329257427090341e-18
8.647472100449282152e+03,5.252227005473721682e-14,6.169961385459183656e-18
8.671857401721066708e+03,5.173197833055603299e-14,7.020446384127650991e-18
8.696242702992851264e+03,5.216299773787607898e-14,1.011496346457277811e-17
8.720628004264637639e+03,5.650984129515286369e-14,1.085262737614079981e-17
8.745013305536422195e+03,5.950465550569018315e-14,8.583228454617138587e-18
8.769398606808206750e+03,6.100527116758953254e-14,6.579229945995407116e-18
8.793783908079991306e+03,6.200375118740239067e-14,7.119093605582786201e-18
8.818169209351775862e+03,6.150560163386337951e-14,6.611271838231772603e-18
8.842554510623560418e+03,6.285995344898005684e-14,9.489812506547708271e-18
8.866939811895346793e+03,6.542238913596521887e-14,7.549643629229014702e-18
8.891325113167131349e+03,6.673157559790150728e-14,7.295387842787286378e-18
8.915710414438915905e+03,6.762665286224836520e-14,7.297667910805476827e-18
8.940095715710700460e+03,6.760143684106309146e-14,7.098670163307109409e-18
8.964481016982486835e+03,6.974448275880210086e-14,8.103811979906483509e-18
8.988866318254271391e+03,7.100252803466736932e-14,8.348011906612451354e-18
9.013251619526055947e+03,7.070242665907111903e-14,7.950984747691626241e-18
9.037636920797840503e+03,6.992089158513494236e-14,7.954723538018055684e-18
9.062022222069625059e+03,7.249686244941226902e-14,9.496905596929681654e-18
9.086407523341409615e+03,7.252701084268371405e-14,8.112454591799210867e-18
9.110792824613194171e+03,7.245451910582301185e-14,7.979362688101046240e-18
9.135178125884978726e+03,7.446566088155126246e-14,8.203562873406874057e-18
9.159563427156763282e+03,7.583477908943496083e-14,1.018587717486050091e-17
9.183948728428549657e+03,7.588943049130708470e-14,8.356112519677897076e-18
9.208334029700334213e+03,7.657653771060273440e-14,7.842517407271840738e-18
9.232719330972118769e+03,7.650704800023530319e-14,7.689257574598547849e-18
9.257104632243903325e+03,7.680136152519270470e-14,1.166230449649539151e-17
9.281489933515687881e+03,7.832625329701835355e-14,1.199282374273328779e-17
9.305875234787472436e+03,7.958711989973049613e-14,1.051583756786365460e-17
9.330260536059256992e+03,8.139816617507389595e-14,9.035439237153167690e-18
9.354645837331041548e+03,8.044001767910951402e-14,8.073011043522811355e-18
9.379031138602826104e+03,8.106360237283446286e-14,6.710093859728814530e-18
9.403416439874612479e+03,8.126303515612823449e-14,9.036938844954090918e-18
9.427801741146397035e+03,8.101934734532863460e-14,8.839634368017584428e-18
9.452187042418181591e+03,8.203190987574549825e-14,8.466687889663506869e-18
9.476572343689966146e+03,8.376243556936000303e-14,9.345321111674403435e-18
9.500957644961750702e+03,8.502128921442428540e-14,8.536975388402556874e-18
9.525342946233535258e+03,8.591275021002894681e-14,1.003338210142361742e-17
9.549728247505319814e+03,8.676521421922403783e-14,8.840870811987058778e-18
9.574113548777104370e+03,8.743934907007580298e-14,1.016709089018416807e-17
9.598498850048888926e+03,8.822342622845819837e-14,1.087562567307165913e-17
9.622884151320675301e+03,8.821141630183375234e-14,1.024655555364071732e-17
9.647269452592461676e+03,8.878850952545189630e-14,9.283543107471280999e-18
9.671654753864246231e+03,8.906326493087283858e-14,9.408653744368206929e-18
9.696040055136030787e+03,8.967313397524063674e-14,1.120772391922250290e-17
9.720425356407815343e+03,8.947445312095404453e-14,1.215784444966829916e-17
9.744810657679599899e+03,9.060837389802332682e-14,1.185965780031152898e-17
9.769195958951384455e+03,9.102419928709073736e-14,1.001400837867446747e-17
9.793581260223169011e+03,9.161670341405348651e-14,9.601003651493337245e-18
9.817966561494953567e+03,9.244478981200957815e-14,1.250643259563263251e-17
9.842351862766738122e+03,9.294582532551836438e-14,1.143235675792953434e-17
9.866737164038524497e+03,9.221258211829183339e-14,1.077836395387620597e-17
9.891122465310309053e+03,9.348800482854017393e-14,9.562106802329613854e-18
9.915507766582093609e+03,9.338545755162682597e-14,7.960615083016436252e-18
9.939893067853878165e+03,9.385318151772649700e-14,1.168168266459417782e-17
9.964278369125662721e+03,9.440668092051144354e-14,1.132054934098117420e-17
9.988663670397447277e+03,9.503953341234764861e-14,1.082544177179583877e-17
1.001304897166923183e+04,9.535694849952975111e-14,1.056333301409394217e-17
1.003743427294101639e+04,9.578942420034767707e-14,1.280483229518947622e-17
1.006181957421280276e+04,9.386819870521685170e-14,1.118053192226777852e-17
1.008620487548458732e+04,9.528564496525576234e-14,1.112399897464698503e-17
1.011059017675637369e+04,9.635181338850751721e-14,1.236234062166587908e-17
1.013497547802815825e+04,9.771905382210601473e-14,1.067510333717512648e-17
1.015936077929994281e+04,9.564568832796324933e-14,1.135127473504181541e-17
1.018374608057172736e+04,9.736853337628008688e-14,1.252932207753187682e-17
1.020813138184351192e+04,9.797017216622420582e-14,1.283620563435896418e-17
1.023251668311529647e+04,9.907349735253441208e-14,1.207005985556829319e-17
1.025690198438708103e+04,9.889857827416799288e-14,1.211083645623800465e-17
1.028128728565886558e+04,1.002181545106094365e-13,1.324859789218522756e-17
1.030567258693065014e+04,1.005330652918608256e-13,1.319840496108602433e-17
1.033005788820243652e+04,9.969719105775889488e-14,1.296467646611599433e-17
1.035444318947422107e+04,9.932803579021191316e-14,1.126324721819672511e-17
1.037882849074600563e+04,9.953141346981638400e-14,1.093223986548783264e-17
1.040321379201779018e+04,1.001139977779034714e-13,1.048714396838781857e-17
1.042759909328957474e+04,9.967275108921117828e-14,1.080642741677778548e-17
1.045198439456135930e+04,9.913135492143232386e-14,1.343779304936129617e-17
1.047636969583314385e+04,9.947337565643490960e-14,1.542333862273493385e-17
1.050075499710492841e+04,9.891168195709042699e-14,1.334860689876061709e-17
1.052514029837671296e+04,9.882265938872399350e-14,1.182592350493613348e-17
1.054952559964849934e+04,9.883148454097599878e-14,1.256500786188584109e-17
1.057391090092028389e+04,9.760597498746371180e-14,1.392115190483355051e-17
1.059829620219206845e+04,9.780355343735840265e-14,1.217397422426276349e-17
1.062268150346385301e+04,9.746509571704604371e-14,1.161362777609779857e-17
1.064706680473563756e+04,9.821235793966078376e-14,1.300150521547200409e-17
1.067145210600742212e+04,9.818323844198300246e-14,1.202352678151450440e-17
1.069583740727920667e+04,9.810893037782013556e-14,1.188739672966477908e-17
1.072022270855099123e+04,9.843230172589087142e-14,1.231878007934907948e-17
1.074460800982277578e+04,9.843828074492136721e-14,1.281589987539958923e-17
1.076899331109456034e+04,9.814470663199312204e-14,1.412662585206027336e-17
1.079337861236634672e+04,9.752790864375342526e-14,1.364402395451143118e-17
1.081776391363813127e+04,9.609140289506628138e-14,1.198570987814483992e-17
1.084214921490991583e+04,9.589031331904480555e-14,1.250905042386162394e-17
1.086653451618170038e+04,9.598117064880830954e-14,1.181860850889936726e-17
1.089091981745348676e+04,9.683649581159854026e-14,1.198904532111251319e-17
1.091530511872527131e+04,9.672540967985782963e-14,1.133856569820392611e-17
1.093969041999705587e+04,9.426015080346896077e-14,1.403995826618712686e-17
1.096407572126884043e+04,9.282753578671487795e-14,1.185764066944289304e-17
1.098846102254062498e+04,9.257607834628292137e-14,9.580248721305156604e-18
1.101284632381241136e+04,9.310755788132596615e-14,1.138224633642605728e-17
1.103723162508419591e+04,9.334473731871531356e-14,1.174556590312471438e-17
1.106161692635598047e+04,9.405633298140084611e-14,1.262602089123988203e-17
1.108600222762776502e+04,9.501801558921527365e-14,1.177326640226127607e-17
1.111038752889954958e+04,9.509501685188631727e-14,1.247786432476136160e-17
1.113477283017133414e+04,9.357398326785087453e-14,1.165507105589229813e-17
1.115915813144311869e+04,9.400906250009804273e-14,1.257435113365122653e-17
1.118354343271490507e+04,9.363668741064014554e-14,1.119678639582550179e-17
1.120792873398668962e+04,9.412329972416122206e-14,1.306967989067641057e-17
1.123231403525847418e+04,9.265125349565080778e-14,1.132565736246154005e-17
1.125669933653026055e+04,9.234996346230499722e-14,9.722174792153197091e-18
1.128108463780204511e+04,9.243855089499898857e-14,1.231485651231699328e-17
1.130546993907382966e+04,9.243299972903553692e-14,1.292972870108279157e-17
1.132985524034561422e+04,9.158556572435521992e-14,1.274260931371577069e-17
1.135424054161739878e+04,8.978715044532774283e-14,1.642947844027626146e-17
1.137862584288918333e+04,8.528212960916533830e-14,2.302023775988342707e-17
1.140301114416096789e+04,7.703096022552717133e-14,3.072772125486785673e-17
1.142739644543275244e+04,6.636955295959611951e-14,3.652012439654918599e-17
1.145178174670453700e+04,5.389487253414027927e-14,3.838218916131114027e-17
1.147616704797632337e+04,4.176890908555836670e-14,2.954669138500390979e-17
1.150055234924810793e+04,3.267874487140587605e-14,2.167690988079698846e-17
1.152493765051989249e+04,2.653619493672767883e-14,1.495321730629410293e-17
1.154932295179167704e+04,2.122356371490239247e-14,1.269497513890893034e-17
1.157370825306346160e+04,1.632277048500388661e-14,1.275878708953917214e-17
1.159809355433524615e+04,1.165116337877551902e-14,1.112239101287974587e-17
1.162247885560703071e+04,7.707499720158625691e-15,8.651161939243412877e-18
1.164686415687881527e+04,4.853575305679573230e-15,5.136737247696222341e-18
1.167124945815059982e+04,3.147552414420079552e-15,3.054968076277525246e-18
1.169563475942238620e+04,2.163933887959547500e-15,2.055819248185797598e-18
1.172002006069417075e+04,1.550161729807130227e-15,1.612276150775981532e-18
1.174440536196595531e+04,1.160999520162484658e-15,1.147982707055621151e-18
1.176879066323773986e+04,8.742922569384500954e-16,8.971414455560343018e-19
1.179317596450952442e+04,7.152667216542483033e-16,9.055362589846079617e-19
1.181756126578130898e+04,5.942422960494336424e-16,7.035659070695805379e-19
1.184194656705309353e+04,4.974179343954664854e-16,7.281584470711603609e-19
1.186633186832487809e+04,4.159571587088019633e-16,7.013545469138216425e-19
1.189071716959666264e+04,3.588427009270877619e-16,6.600968407321977838e-19
1.191510247086844720e+04,3.135155924754250789e-16,6.332406441483371188e-19
1.193948777214023357e+04,2.750381593317746767e-16,7.195765193634831263e-19
1.196387307341201813e+04,2.423881599919923383e-16,7.779553751758145281e-19
1.198825837468380269e+04,2.113592266531397859e-16,6.553281983033754681e-19
1.201264367595558724e+04,1.785272608563264486e-16,6.463352205201297962e-19
1.203702897722737180e+04,1.277268026178195964e-16,6.565797798814534755e-19
