Wavelength,Flux,FluxErr
9.730108251938931062e+03,6.786228694238452535e-17,1.486821419921936179e-18
9.776333365652728389e+03,1.418813499206093871e-16,3.288789016674782497e-18
9.822558479366525717e+03,2.421534865403150262e-16,3.792610680471248014e-18
9.868783593080324863e+03,3.406052373312520978e-16,3.908882642641282042e-18
9.915008706794122190e+03,3.943021897552859970e-16,3.449046687011001508e-18
9.961233820507917699e+03,4.172159195671128723e-16,4.117492194053254459e-18
1.000745893422171685e+04,5.225069988042545323e-16,3.826265260157318152e-18
1.005368404793551417e+04,6.867366835080123795e-16,2.643106543887875988e-18
1.009990916164931150e+04,8.795342016716787422e-16,4.828684437653805300e-18
1.014613427536311065e+04,1.059628044007152070e-15,4.231324926220572908e-18
1.019235938907690615e+04,1.188766543416543386e-15,5.099508538411997310e-18
1.023858450279070530e+04,1.489254340788385122e-15,4.410635224979846948e-18
1.028480961650450263e+04,1.988113696854275934e-15,8.250934256479623723e-18
1.033103473021829996e+04,2.754059095492216263e-15,6.697609306376006419e-18
1.037725984393209728e+04,3.538178450616164777e-15,6.877473557178017792e-18
1.042348495764589461e+04,4.249712205186234067e-15,7.614855122393088160e-18
1.046971007135969194e+04,5.361706194733887243e-15,1.169872666082630320e-17
1.051593518507349108e+04,7.300956791126282748e-15,2.169722977701490928e-17
1.056216029878728841e+04,1.066497228976936212e-14,3.206406360050863273e-17
1.060838541250108392e+04,1.464479001265704946e-14,3.140875613248015902e-17
1.065461052621488307e+04,1.827926099409587090e-14,2.541417011188981901e-17
1.070083563992868039e+04,2.196084277467268189e-14,3.747608492789680369e-17
1.074706075364247954e+04,2.839444064455712781e-14,7.360811332042953760e-17
1.079328586735627687e+04,4.080744608183838433e-14,1.293263123348676693e-16
1.083951098107007238e+04,6.045938241891535675e-14,1.704388339150188324e-16
1.088573609478387152e+04,8.043819849916042646e-14,1.310077871572363245e-16
1.093196120849766885e+04,9.597328428512971853e-14,7.070789864589153933e-17
1.097818632221146618e+04,1.080484625337089732e-13,8.222721891651696535e-17
1.102441143592526350e+04,1.243509382648979425e-13,1.218197337823017084e-16
1.107063654963906083e+04,1.453447599038518062e-13,1.423627202161084334e-16
1.111686166335285816e+04,1.639070527472197082e-13,8.954062560308355304e-17
1.116308677706665731e+04,1.768941107700503175e-13,5.111787165824727773e-17
1.120931189078045463e+04,1.810181911719783658e-13,5.889353033305439888e-17
1.125553700449425196e+04,1.862070447920937943e-13,5.402969832360530889e-17
1.130176211820804929e+04,1.886998529843715812e-13,5.978554980183810981e-17
1.134798723192184661e+04,1.886051329959569454e-13,5.193232389623933755e-17
1.139421234563564394e+04,1.948715973920669149e-13,7.271837484556975229e-17
1.144043745934944309e+04,1.945516966687960095e-13,7.490812801576952200e-17
1.148666257306323860e+04,1.983180915510957078e-13,5.750044288342104004e-17
1.153288768677703774e+04,2.006179774231934187e-13,6.851929384068830615e-17
1.157911280049083507e+04,2.002759038694963915e-13,6.901277211274829748e-17
1.162533791420463240e+04,2.023093929679878480e-13,7.524404437462312410e-17
1.167156302791842973e+04,2.036238865982805059e-13,5.899674262656350456e-17
1.171778814163222705e+04,2.065776142167935950e-13,5.907560489882197531e-17
1.176401325534602620e+04,2.109874250036584673e-13,5.616948564436749914e-17
1.181023836905982353e+04,2.144172851775907268e-13,7.352648797834713379e-17
1.185646348277362085e+04,2.154146313045344574e-13,7.829271314441194724e-17
1.190268859648741636e+04,2.181833859177892019e-13,5.730022653131432951e-17
1.194891371020121551e+04,2.194179377075235143e-13,5.964887192875429991e-17
1.199513882391501284e+04,2.224834742227127710e-13,8.079101314119620663e-17
1.204136393762881198e+04,2.230557526079185724e-13,6.397926340629689364e-17
1.208758905134260931e+04,2.268657191585076430e-13,6.507336422394626477e-17
1.213381416505640482e+04,2.290836253835407306e-13,7.216337005469619625e-17
1.218003927877020396e+04,2.299247982574834429e-13,5.581745137631115406e-17
1.222626439248400129e+04,2.344208786791772616e-13,7.061859328860327678e-17
1.227248950619780044e+04,2.367544899373627405e-13,6.979428973694104405e-17
1.231871461991159595e+04,2.371178838079383509e-13,7.304637807018875862e-17
1.236493973362539327e+04,2.397558249535029917e-13,6.858669680937482092e-17
1.241116484733919060e+04,2.412431706910273221e-13,7.137596197266914039e-17
1.245738996105298975e+04,2.399959333999958031e-13,8.592761119094916038e-17
1.250361507476678707e+04,2.419343522815538064e-13,7.088064900575010971e-17
1.254984018848058440e+04,2.421370161892892550e-13,8.637348508438239257e-17
1.259606530219438173e+04,2.422963714117157111e-13,8.773700689156162278e-17
1.264229041590817906e+04,2.421243606007481037e-13,7.704734342169253375e-17
1.268851552962197820e+04,2.431972102630704945e-13,7.765240947119112233e-17
1.273474064333577553e+04,2.422226838299026040e-13,7.614572075626572365e-17
1.278096575704957286e+04,2.432577910722719178e-13,7.168330222086207180e-17
1.282719087076337019e+04,2.446934164082113920e-13,6.620910595513072894e-17
1.287341598447716751e+04,2.464576420939746140e-13,7.167512480588741619e-17
1.291964109819096484e+04,2.499711607684051359e-13,7.216783067893102391e-17
1.296586621190476217e+04,2.499918828301626128e-13,7.514449970686410962e-17
1.301209132561855949e+04,2.453109565324237035e-13,7.868908387740147501e-17
1.305831643933235864e+04,2.545100737640407903e-13,8.359801959480770146e-17
1.310454155304615597e+04,2.535741410180087017e-13,9.574342082041184505e-17
1.315076666675995330e+04,2.530706370444338779e-13,1.077680389725155432e-16
1.319699178047374880e+04,2.524004467304693431e-13,5.722846768891050534e-17
1.324321689418754795e+04,2.588671059855753717e-13,7.506882432647513905e-17
1.328944200790134710e+04,2.605057903269032329e-13,8.763545013345964666e-17
1.333566712161514442e+04,2.602494155729404235e-13,8.507946562181697493e-17
1.338189223532894175e+04,2.617515581537935505e-13,8.333605896397267454e-17
1.342811734904273726e+04,2.600006997308926639e-13,9.206057289384707174e-17
1.347434246275653641e+04,2.607292199191654153e-13,8.010880486843063738e-17
1.352056757647033373e+04,2.612178024129279166e-13,8.951116842597449386e-17
1.356679269018413288e+04,2.604650990077490425e-13,8.114957580634208739e-17
1.361301780389792839e+04,2.585695675401856303e-13,8.236520055332892662e-17
1.365924291761172572e+04,2.564692221855453032e-13,8.841958502493573626e-17
1.370546803132552304e+04,2.599198243630723593e-13,8.069396590788359689e-17
1.375169314503932219e+04,2.581433905337440021e-13,1.003922513625354374e-16
1.379791825875312134e+04,2.539861630590119470e-13,9.587275761490318865e-17
1.384414337246691684e+04,2.498391059213387493e-13,1.066550532245339650e-16
1.389036848618071417e+04,2.524989544216195305e-13,1.108561359172249892e-16
1.393659359989451150e+04,2.499160976163311173e-13,1.020696596834197522e-16
1.398281871360830883e+04,2.500077365908720304e-13,7.315259641085607635e-17
1.402904382732210797e+04,2.536730213722447291e-13,7.721964189585117478e-17
1.407526894103590530e+04,2.557529786909036187e-13,8.490317772782289768e-17
1.412149405474970263e+04,2.559946824843860468e-13,9.138137953492860972e-17
1.416771916846349995e+04,2.577021599328174422e-13,8.464566764001870216e-17
1.421394428217729728e+04,2.572556210640558397e-13,8.741351169943784267e-17
1.426016939589109461e+04,2.565465865436235112e-13,1.039132206954170236e-16
1.430639450960489194e+04,2.580881952669974247e-13,8.950270290793272546e-17
1.435261962331869108e+04,2.576109983160085753e-13,1.004119837365727630e-16
1.439884473703248841e+04,2.596326556731152278e-13,9.802569396167965529e-17
1.444506985074628574e+04,2.556027593227224972e-13,8.394949126086228806e-17
1.449129496446008125e+04,2.576271325088060146e-13,9.719225722240447747e-17
1.453752007817388039e+04,2.573657448754741993e-13,9.633133102208740906e-17
1.458374519188767954e+04,2.563053414124005979e-13,1.094485785921371671e-16
1.462997030560147687e+04,2.542783919902018070e-13,1.233024021266975234e-16
1.467619541931527419e+04,2.517952705454266626e-13,1.006586489458571056e-16
1.472242053302906970e+04,2.499634557409912022e-13,9.726332611922294177e-17
1.476864564674286885e+04,2.504762102343761763e-13,8.697454067237350794e-17
1.481487076045666618e+04,2.505052804478027887e-13,9.930833455865972117e-17
1.486109587417046532e+04,2.497794000602518872e-13,1.132784672903148732e-16
1.490732098788426083e+04,2.481463492879811860e-13,9.167343890248787622e-17
1.495354610159805816e+04,2.489265213277728114e-13,8.250204551775660178e-17
1.499977121531185549e+04,2.498367116544894349e-13,1.275640435169487779e-16
1.504599632902565463e+04,2.444283320567771057e-13,1.281342643851866790e-16
1.509222144273945378e+04,2.466991838600284029e-13,6.531767353535754861e-17
1.513844655645324929e+04,2.512838845606312003e-13,8.560170998606026167e-17
1.518467167016704661e+04,2.543036782399873843e-13,9.807094668533340706e-17
1.523089678388084394e+04,2.546434435260088224e-13,1.061983503298165631e-16
1.527712189759464309e+04,2.539328323540594590e-13,1.170951385805416653e-16
1.532334701130844041e+04,2.524090902706045660e-13,1.117282056454710350e-16
1.536957212502223774e+04,2.507116311027220990e-13,1.222975517249988950e-16
1.541579723873603507e+04,2.463970899511643821e-13,1.153995757142736030e-16
1.546202235244983240e+04,2.496954548958414596e-13,9.631504382613279110e-17
1.550824746616362972e+04,2.491460610153829641e-13,1.172732385759716036e-16
1.555447257987742705e+04,2.474691830700315438e-13,1.157335292361441263e-16
1.560069769359122620e+04,2.463499088103110019e-13,1.232341934604622047e-16
1.564692280730502353e+04,2.462854717483080450e-13,1.042945534021847268e-16
1.569314792101882085e+04,2.452318036408063202e-13,1.162391126540004926e-16
1.573937303473261818e+04,2.425402451263769757e-13,1.373968519143320860e-16
1.578559814844641369e+04,2.367396195585086066e-13,8.407173275707147685e-17
1.583182326216021283e+04,2.422380764356228292e-13,8.549894324328422189e-17
1.587804837587401198e+04,2.429509933825181546e-13,1.163482942396137871e-16
1.592427348958780931e+04,2.448186922769367461e-13,8.892171802091079909e-17
1.597049860330160664e+04,2.421706206779879883e-13,9.522584123621986275e-17
1.601672371701540214e+04,2.442997844803581479e-13,1.165630461296570833e-16
1.606294883072920129e+04,2.430754989977751033e-13,1.254401054101580503e-16
1.610917394444300044e+04,2.431252601138382733e-13,1.229355675935146938e-16
1.615539905815679776e+04,2.383056931772414025e-13,1.345399728262870631e-16
1.620162417187059327e+04,2.363134674793637038e-13,1.386389010914518966e-16
1.624784928558439060e+04,2.348514217016381774e-13,1.177753340144575473e-16
1.629407439929818793e+04,2.341112642048949437e-13,1.173292891146007181e-16
1.634029951301198707e+04,2.321092707458002576e-13,1.392769536075928063e-16
1.638652462672578622e+04,2.289265971242624456e-13,1.321402766109266554e-16
1.643274974043957991e+04,2.277777503660865197e-13,1.133217762377484834e-16
1.647897485415337724e+04,2.246509687292384541e-13,1.165070080917483199e-16
1.652519996786717456e+04,2.210153586482376429e-13,1.338325338018827504e-16
1.657142508158097553e+04,2.168290746700921264e-13,1.698688940179827196e-16
1.661765019529477286e+04,2.047441916017201046e-13,2.477568985095194242e-16
1.666387530900857018e+04,1.839878298839833056e-13,3.182149330179159749e-16
1.671010042272236751e+04,1.566056312957031460e-13,3.563403915723415985e-16
1.675632553643616120e+04,1.266126922280314631e-13,3.234224785866746178e-16
1.680255065014995853e+04,1.020144825703921630e-13,2.824639229715252791e-16
1.684877576386375586e+04,7.881345942238740180e-14,2.371216329733088492e-16
1.689500087757755682e+04,6.064469381222653768e-14,1.895888048006699199e-16
1.694122599129135415e+04,4.704545222965602398e-14,1.394874991555948128e-16
1.698745110500515148e+04,3.682548741575426939e-14,1.023638427658689273e-16
1.703367621871894880e+04,2.898699224438395573e-14,8.006982787294955466e-17
1.707990133243274977e+04,2.291997473257306697e-14,6.117815104031925799e-17
1.712612644614654710e+04,1.825288612252413932e-14,4.812372656426385039e-17
1.717235155986034079e+04,1.473744103544450707e-14,3.726932201307280665e-17
1.721857667357413811e+04,1.177076423157368405e-14,3.100543088055546591e-17
1.726480178728793544e+04,9.291663403962741170e-15,2.376536953219086530e-17
1.731102690100173277e+04,7.252975678792902162e-15,1.929621959007121018e-17
1.735725201471553009e+04,5.711567191719661110e-15,1.583425168621542723e-17
1.740347712842932742e+04,4.475710049038968920e-15,1.201907807278317695e-17
1.744970224214312839e+04,3.466444448310691415e-15,8.612393789009031628e-18
1.749592735585692571e+04,2.739523667450471883e-15,7.966622114375593428e-18
1.754215246957072304e+04,2.127312405304643301e-15,7.313909920722816827e-18
1.758837758328452401e+04,1.647768598016410641e-15,5.683617801165266150e-18
1.763460269699831770e+04,1.260723382122514561e-15,4.938834214849479819e-18
1.768082781071211502e+04,9.655207510187182311e-16,5.748432319456360246e-18
1.772705292442591235e+04,7.560474409817796955e-16,5.581300800258743243e-18
1.777327803813970968e+04,6.118252639299512904e-16,4.197336478982714683e-18
1.781950315185350701e+04,4.920057394587429687e-16,4.090990742200043356e-18
1.786572826556730433e+04,4.167847308887181494e-16,4.617567735332579707e-18
1.791195337928110166e+04,3.298005054396446687e-16,3.817732442593656345e-18
1.795817849299490263e+04,2.546114374028395987e-16,3.810275132722449512e-18
1.800440360670869995e+04,1.593325959295468953e-16,2.654468466040991319e-18
1.805062872042249364e+04,7.140713563422565062e-17,2.340310783228377027e-18
