Wavelength,Flux,FluxErr
1.101883142164683704e+04,1.949933911739379093e-14,5.904615231306755889e-17
1.106518007112024134e+04,1.896439060419943515e-14,4.562965313737330402e-17
1.111152872059364927e+04,1.816188131909050388e-14,1.569483606652196388e-17
1.115787737006705538e+04,1.746883445652524944e-14,1.305384175682905162e-17
1.120422601954046149e+04,1.723473084968582959e-14,1.440556238144277906e-17
1.125057466901386761e+04,1.709887343371807212e-14,4.081452196884175647e-18
1.129692331848727554e+04,1.700339553527981702e-14,1.430102790993305090e-17
1.134327196796068165e+04,1.686267530268566568e-14,3.586321305399566636e-18
1.138962061743408776e+04,1.668439663723735085e-14,9.463865429585519144e-18
1.143596926690749569e+04,1.664092119756260954e-14,1.034155652722158781e-17
1.148231791638089999e+04,1.654983208807536535e-14,3.275670257411971156e-18
1.152866656585430792e+04,1.636011407335774776e-14,4.036842162377131419e-18
1.157501521532771221e+04,1.614386737786378266e-14,3.316308033066118432e-18
1.162136386480112014e+04,1.603060089416280287e-14,1.258972050581677386e-17
1.166771251427452626e+04,1.599733555709539654e-14,1.294448235526016090e-17
1.171406116374793237e+04,1.594358198761735594e-14,1.241473381164352089e-17
1.176040981322133848e+04,1.573436243871523263e-14,5.703349172110143493e-18
1.180675846269474459e+04,1.545750360726852589e-14,2.619748385640248419e-18
1.185310711216815071e+04,1.518910597702115980e-14,4.139716297624084988e-18
1.189945576164155864e+04,1.507824786707689052e-14,8.482687770816754063e-18
1.194580441111496475e+04,1.492487554418239899e-14,2.763476971432438497e-18
1.199215306058837086e+04,1.475616733332901413e-14,7.302731454592213813e-18
1.203850171006177879e+04,1.469008132210877629e-14,1.034532986046000834e-17
1.208485035953518309e+04,1.461574316739859208e-14,3.471733688750710660e-18
1.213119900900859102e+04,1.452269837078951980e-14,5.037560368978165527e-18
1.217754765848199713e+04,1.441835238870234753e-14,4.721051240348515405e-18
1.222389630795540324e+04,1.423786179607965265e-14,4.272728662245792315e-18
1.227024495742880936e+04,1.407920895733108521e-14,4.571153077701201236e-18
1.231659360690221729e+04,1.392984391868672966e-14,4.519640400440865441e-18
1.236294225637562158e+04,1.384924014783685048e-14,1.078038781850006134e-17
1.240929090584902951e+04,1.376520148427269178e-14,4.373897203845972192e-18
1.245563955532243563e+04,1.360776692126381157e-14,2.682339919617816756e-18
1.250198820479584174e+04,1.349040167989647439e-14,2.701189905377467732e-18
1.254833685426924785e+04,1.331311985631010676e-14,8.010184811044059887e-18
1.259468550374265578e+04,1.313415400822041649e-14,3.947445595360243756e-18
1.264103415321606190e+04,1.304851724172479603e-14,2.763742347459643694e-18
1.268738280268946801e+04,1.295474392820456405e-14,2.896331241390672049e-18
1.273373145216287594e+04,1.272967094617611258e-14,3.920480840849436373e-18
1.278008010163628023e+04,1.231082324287124873e-14,1.990577778142171394e-17
1.282642875110968816e+04,1.231070926839039416e-14,3.659835407672304492e-17
1.287277740058309428e+04,1.259144491549188875e-14,4.731203929717618126e-18
1.291912605005650039e+04,1.259547517041153472e-14,4.865697571158885097e-18
1.296547469952990650e+04,1.248485274601821159e-14,2.806272890291786111e-18
1.301182334900331261e+04,1.232769699282427752e-14,2.979002699796718566e-18
1.305817199847671873e+04,1.218776100142134639e-14,3.518131670831579018e-18
1.310452064795012484e+04,1.201393343451456668e-14,6.893393985696948463e-18
1.315086929742353277e+04,1.179560511631126440e-14,8.641272739051696299e-18
1.319721794689693888e+04,1.167612208770450915e-14,1.002484463198968123e-17
1.324356659637034500e+04,1.157476146203565172e-14,5.517483742645083806e-18
1.328991524584375111e+04,1.147163610234611916e-14,4.317705501281353703e-18
1.333626389531715904e+04,1.144124811100353267e-14,2.698586111450392267e-18
1.338261254479056333e+04,1.138978298527653649e-14,3.918865960187642687e-18
1.342896119426397127e+04,1.131958871776271556e-14,3.142994784666070330e-18
1.347530984373737738e+04,1.117744277147442909e-14,6.039624038098513164e-18
1.352165849321078349e+04,1.107618573905629892e-14,5.574842043606039994e-18
1.356800714268418960e+04,1.092616588496109867e-14,1.830546298386945823e-17
1.361435579215759753e+04,1.078406571739037171e-14,3.318962993376665848e-18
1.366070444163100183e+04,1.072491435360773798e-14,9.233157241623536697e-18
1.370705309110440976e+04,1.059726571959200776e-14,8.038015919629846212e-18
1.375340174057781587e+04,1.046002739097714955e-14,1.081626641942542837e-17
1.379975039005122198e+04,1.031827993406352914e-14,9.213598135714925481e-18
1.384609903952462992e+04,1.030905217717895546e-14,1.290012764321862726e-17
1.389244768899803603e+04,1.035339859987812417e-14,3.824190136975495221e-18
1.393879633847144214e+04,1.029912162019608687e-14,3.497339161515079612e-18
1.398514498794484825e+04,1.022111120575885809e-14,4.977861002239645522e-18
1.403149363741825618e+04,1.014697382123557567e-14,7.750611100129295236e-18
1.407784228689166048e+04,1.001532160464554755e-14,9.786162328197661384e-18
1.412419093636506841e+04,9.868544673544312570e-15,3.278670115498631730e-18
1.417053958583847452e+04,9.837696417797907747e-15,2.974152619564421485e-18
1.421688823531188063e+04,9.777341986737560878e-15,5.740183592579819176e-18
1.426323688478528493e+04,9.637788312170329381e-15,5.230360075343276708e-18
1.430958553425869468e+04,9.531311268683143868e-15,3.500193301221967983e-18
1.435593418373209897e+04,9.435624179907002088e-15,6.002743774496511036e-18
1.440228283320550509e+04,9.346819441933248005e-15,2.794271419411174669e-18
1.444863148267891484e+04,9.296448545214066962e-15,5.251910869757829429e-18
1.449498013215231913e+04,9.193087954288794592e-15,9.207041996385879901e-18
1.454132878162572524e+04,9.175241087638136422e-15,7.730679261328396710e-18
1.458767743109913317e+04,8.976200319082468918e-15,3.516027218226892277e-17
1.463402608057253929e+04,8.818364369945731085e-15,1.225562602984041029e-17
1.468037473004594358e+04,8.885472898299632279e-15,3.451139871637522434e-18
1.472672337951935151e+04,8.865132839273613753e-15,2.999545683736155922e-18
1.477307202899275762e+04,8.828519238031240105e-15,4.851872425337276542e-18
1.481942067846616374e+04,8.748021915556586487e-15,6.745124685009285530e-18
1.486576932793956985e+04,8.666972709291208481e-15,2.921781302092781582e-18
1.491211797741297778e+04,8.572032021079062529e-15,3.999118547571425646e-18
1.495846662688638207e+04,8.443972970694187422e-15,5.765780169475543778e-18
1.500481527635979000e+04,8.323318332980367018e-15,2.572923534226353629e-18
1.505116392583319612e+04,8.311903769115714675e-15,3.783868095844968886e-18
1.509751257530660223e+04,8.302375479120197485e-15,4.020513330740262230e-18
1.514386122478001016e+04,8.260897637301777222e-15,2.805172213147150994e-18
1.519020987425341627e+04,8.202806239144728399e-15,2.621144379013557851e-18
1.523655852372682239e+04,8.130486046085448179e-15,4.593752433228913484e-18
1.528290717320022850e+04,8.034796998922052409e-15,7.535647938084846551e-18
1.532925582267363643e+04,7.955723197780282718e-15,6.098436791411213167e-18
1.537560447214704072e+04,7.886712520853260608e-15,3.990913781077709145e-18
1.542195312162044866e+04,7.847700371186891752e-15,5.382800855271273356e-18
1.546830177109385477e+04,7.761116165165840731e-15,9.523221260558935122e-18
1.551465042056726088e+04,7.659651684505765453e-15,7.546492379180561748e-18
1.556099907004066699e+04,7.586539063064944497e-15,6.473808610714838349e-18
1.560734771951407492e+04,7.557925440909819472e-15,3.991657372520273446e-18
1.565369636898747922e+04,7.548758789601454296e-15,2.936912477014805548e-18
1.570004501846088533e+04,7.439786368409651689e-15,1.074840921471300934e-17
1.574639366793429508e+04,7.363690659477323868e-15,4.243802216883310050e-18
1.579274231740769937e+04,7.284752453357727522e-15,8.831447153703734954e-18
1.583909096688110549e+04,7.155158649405322274e-15,7.876220750979688214e-18
1.588543961635451342e+04,7.140336950995593874e-15,4.033967706935403927e-18
1.593178826582791953e+04,7.136949327572410194e-15,6.678662376059280939e-18
1.597813691530132382e+04,7.062806946514505494e-15,7.454767231548345443e-18
1.602448556477473176e+04,6.951573087016086006e-15,1.009995147090011526e-17
1.607083421424813787e+04,6.905815060936943478e-15,4.092008743510755692e-18
1.611718286372154398e+04,6.844531403436064081e-15,1.284635837494045773e-17
1.616353151319495009e+04,6.792876499863319484e-15,2.375588652331196036e-18
1.620988016266835803e+04,6.839032377253274470e-15,2.361978391867442934e-18
1.625622881214176232e+04,6.848252938839667122e-15,6.232652448216040977e-18
1.630257746161517025e+04,6.731193546598792858e-15,1.794132957834856083e-17
1.634892611108857818e+04,6.631512370403954292e-15,2.075418566568278984e-18
1.639527476056198429e+04,6.664282696539672484e-15,1.644637529590298400e-18
1.644162341003538677e+04,6.640786556310145918e-15,6.773008312553118670e-18
1.648797205950879652e+04,6.506915352979426352e-15,1.680081061329633520e-17
1.653432070898220263e+04,6.304363480682299914e-15,2.511633754210209080e-17
1.658066935845561238e+04,6.028153812122727716e-15,4.075172391488790415e-17
1.662701800792901486e+04,5.682946122268713956e-15,5.689104391833313817e-17
1.667336665740242097e+04,5.304394716096417395e-15,5.899669919242022646e-17
